camera_move(m) depth(m) 
19.2545963703 32.6513704819 
17.918404096 31.3189958159 
16.5467071631 29.9640862944 
15.1891202779 28.6185697809 
13.691733073 27.0693769799 
12.3446951472 25.7432984791 
10.9650460815 24.3431775701 
9.59057027806 22.9799088146 
8.20608345567 21.591704698 
6.79763472405 20.1551130952 
5.47194416386 18.8508584807 
4.08476396701 17.4316129032 
2.7401195609 16.0798316112 
1.3621881682 14.6899806139 
2.10942374679e-15 13.3121903485 