camera_move(m) depth(m) 
19.4024229965 45.0175873016 
18.0885446561 43.8523235294 
16.7048151882 42.3608146067 
15.3421421795 41.089921671 
13.8551497343 39.5611138015 
12.480951725 38.1799537037 
11.1097962688 36.7679281184 
9.74753825091 35.4401212121 
8.38738371506 34.0311819887 
7.01802436008 32.6522619048 
5.66294408119 31.3180660377 
4.30086160245 29.9459684362 
2.9066909846 28.5497336884 
1.4077781211 27.017950237 
6.66133814775e-16 25.6268736842 