camera_move(m) depth(m) 
17.6095629407 43.7961594203 
16.4880439586 42.6115333333 
14.7856432829 40.9231071429 
13.6545470472 39.8426595745 
12.3366733684 38.5233962264 
11.0003885708 37.2091187739 
9.89613865148 36.0723684211 
8.59129623089 34.6905932203 
7.41881893219 33.4472077922 
6.14175849441 32.1233833333 
5.02906524049 30.9649315068 
3.67145528002 29.6087343358 
2.49114912877 28.4793582264 
1.34467908635 27.3921389794 
2.48689957516e-14 26.0512955466 