camera_move(m) depth(m) 
14.2966078301 29.5980995475 
13.5314194855 29.1341037037 
12.7551529489 28.3836950549 
11.7816843895 27.4464766839 
10.8295527306 26.4955515588 
9.80500226401 25.5379821628 
8.68550342015 24.5818860104 
7.70097491668 23.6805142857 
6.56262229513 22.5435528596 
5.60743422021 21.5973878836 
4.49078262106 20.4699223712 
3.47165108932 19.4616069142 
2.38185360036 18.3774971751 
1.10330596758 17.1059409773 
6.93889390391e-16 16.0036306002 