camera_move(m) depth(m) 
13.78135828 29.3739488636 
13.2072555046 29.8959004392 
12.4413352323 30.1631934033 
11.6642655071 30.0885315712 
10.689754896 29.2333760684 
9.7365284112 28.2990343915 
8.71097640537 27.2752179177 
7.59031319228 26.1875303197 
6.6046806004 25.1959832636 
5.46514360582 24.055476865 
4.50883162418 23.0913473316 
3.3910174654 21.9700788644 
2.37087835591 20.9806290207 
1.27994235862 19.895427673 
2.55351295664e-15 18.6342849193 