camera_move(m) depth(m) 
19.290219931 36.2556989247 
17.9192614297 34.8548519737 
16.5624960147 33.5027245053 
15.0659317798 32.0221848739 
13.7196464276 30.6624550129 
12.3407654161 29.2618224299 
10.9670499851 27.9224050633 
9.58330102389 26.4837535545 
8.17560660208 25.089665272 
6.85071337362 23.7999470499 
5.46429164 22.3931480241 
4.12044331388 21.0575460487 
2.74324780476 19.6848247423 
1.38177313902 18.325759325 
-2.22044604925e-15 16.936001506 