camera_move(m) depth(m) 
18.2345168575 47.2864935065 
16.9933273481 46.050965035 
15.7429684527 44.780123119 
14.3849837199 43.493806366 
13.0649986293 42.332345191 
11.7532185919 41.1142151899 
10.3917965472 39.8388427673 
9.19232202629 38.6118967742 
7.8025036447 37.1354834606 
6.47185851102 35.8964404609 
5.19245224681 34.5342668428 
3.96096550096 33.3085271318 
2.7188328187 31.9776419753 
1.34967878911 30.5820073665 
-5.68434188608e-14 29.1582211198 