camera_move(m) depth(m) 
19.3055055523 29.1543763326 
17.8993647971 27.6523090909 
16.5578146838 26.3091183386 
15.1464206156 24.8005315286 
13.8088121514 23.4223628219 
12.4195963503 21.9572868757 
11.0548095173 20.5196943231 
9.68147985004 19.0643461071 
8.19035096862 17.4548352804 
6.82133804704 15.9825984815 
5.45969055093 14.5005304519 
4.09313390086 12.9861709798 
2.72781096644 11.4448821837 
1.39150518538 9.99638658285 
-8.65973959208e-15 8.571302493 