camera_move(m) depth(m) 
19.6907539583 35.7356 
18.3361372104 34.052 
16.9482830814 32.7302325581 
15.6918304601 31.4305555556 
14.465949638 30.2405405405 
13.1853654509 28.804 
11.9795595641 27.6544554455 
10.6910025169 26.307080292 
9.49170502963 25.0487790698 
8.09651654487 23.604529148 
6.74564361423 22.1657291667 
5.3521857741 20.6543835616 
3.99671812188 19.1884016393 
2.61769502047 17.7290715373 
1.36458647274 16.3690200445 
3.33066907388e-16 14.8835511811 