camera_move(m) depth(m) 
16.7960705059 54.8206829268 
15.5161072227 53.5133653846 
14.3063065041 52.3552863436 
13.1753646838 51.1791949153 
11.8159176954 49.7961133603 
10.7154195676 48.7156439394 
9.45425139426 47.4382264151 
8.3524536682 46.2905 
7.08252466855 45.0364324324 
5.98023959317 44.0128813559 
4.72217046169 nan 
3.60030460012 41.495 
2.36116645573 40.4328571429 
1.23951302848 39.2171820449 
0.0 37.9625295508 