camera_move(m) depth(m) 
19.3352146934 35.8538755981 
17.9510909398 34.4831941545 
16.5812560583 33.1148991935 
15.2202112751 31.7091240876 
13.8437960738 30.3691471572 
12.5056007735 29.0513181818 
11.1152896525 27.6410958904 
9.63543079231 26.1724137931 
8.24111223426 24.7785620915 
6.88411820879 23.3942534381 
5.50826710015 22.0300434405 
4.15106454205 20.6830668716 
2.76766198089 19.2800402414 
1.42419621817 17.9495486111 
7.77156117238e-16 16.5311773399 