camera_move(m) depth(m) 
12.4842847589 41.7226109215 
11.6287198209 41.6303096774 
10.778903987 41.2470199501 
9.92631176941 40.8100247525 
9.07347414871 40.3038405797 
8.11522004379 39.7229895713 
7.24174813891 39.0807437071 
6.36350413152 38.4801897321 
5.46150148395 37.7771305286 
4.5621747857 36.9910031348 
3.68461943811 36.2016950853 
2.79023426998 35.3246952381 
1.86463113594 34.4392720655 
0.96928866932 33.5383732877 
6.39488462184e-14 32.5190169218 