camera_move(m) depth(m) 
19.4605836333 33.4999517297 
18.1000399353 32.1166854725 
16.5653855456 30.5783946078 
15.2122689713 29.1543763326 
13.8060664838 27.6523090909 
12.4645731646 26.3091183386 
11.0531936251 24.8005315286 
9.7156021276 23.4223628219 
8.32636276789 21.9572868757 
6.96163099653 20.5196943231 
5.58835705833 19.0643461071 
4.09720776342 17.4548352804 
2.72817154162 15.9825984815 
1.36653956384 14.5005304519 
2.22044604925e-16 12.9861709798 