camera_move(m) depth(m) 
18.1476289329 40.392694704 
16.8284527865 39.1580635838 
15.5171981834 37.8714398943 
14.156376176 36.5839951865 
12.9575777229 35.3363685932 
11.5685223648 33.8799315068 
10.2385692578 32.5684727273 
8.95988735 31.263958159 
7.72901009663 30.0381130634 
6.48751319914 28.7449120338 
5.11916518189 27.3601954603 
3.77021984041 25.9885019785 
2.50013450898 24.7123850868 
1.26941097552 23.5107459954 
5.68434188608e-14 22.2296821516 