camera_move(m) depth(m) 
25.0930467816 29.6687456038 
23.2949130398 29.4944055944 
21.4662923567 29.2277304965 
19.6796372851 28.3662331839 
17.8154423612 26.6996610169 
16.0727367615 25.0162489196 
14.2908853958 23.3617134417 
12.4403206984 21.5656783303 
10.5429817516 19.7414292879 
8.67475495042 17.8827107242 
7.10753279747 16.4101135258 
5.25214239042 14.764116906 
3.45664733026 13.3030748086 
1.84319722113 12.200874742 
-1.7763568394e-15 10.9628053204 