camera_move(m) depth(m) 
16.3622423145 18.1966499791 
15.1237027695 18.3483262712 
13.7372476523 18.2514334617 
12.3773782321 17.5234929907 
11.0054830845 16.2200417872 
9.50593294366 14.7644963843 
8.12137295227 13.4037371188 
6.75654104671 12.0506696652 
5.36888323196 10.6855008899 
4.0158433258 9.36489367789 
2.64699443255 8.02380032424 
1.31958373308 6.70604273274 
2.88657986403e-15 5.38729079868 