camera_move(m) depth(m) 
16.9915466569 29.6087343358 
15.8229123907 28.4793582264 
14.6925174053 27.3921389794 
13.3687201539 26.0512955466 
12.0307575137 24.7127617329 
10.8047709287 23.4426628195 
9.68850041669 22.2710644678 
8.51464002176 20.9893091885 
7.36668907209 19.7214125296 
6.28637726319 18.4667147271 
5.13233379297 17.1032665505 
3.95305389308 15.7612390988 
2.64701777267 14.3825090036 
1.20554770324 13.0433523538 
-1.42108547152e-14 11.991586659 