camera_move(m) depth(m) 
53.9425491369 51.5132758621 
49.7343941327 51.8658241758 
45.3942573769 50.0538536585 
41.4220250773 47.7040088106 
36.9580643391 44.0425089606 
32.5353033538 38.7978436658 
28.1521739602 34.837324263 
23.2377278578 30.0132235702 
18.6677685507 25.3701388889 
14.0228135534 20.8872702944 
9.35441508872 16.3780069525 
4.61726556909 11.6587510841 
2.84217094304e-14 7.17117826167 