camera_move(m) depth(m) 
19.3322084033 29.9450478316 
17.967446439 28.4872567873 
16.6294274681 27.1072989378 
15.2112445785 25.6302873051 
13.8755081045 24.315545098 
12.4643886379 22.9436178651 
11.1219698418 21.5683514035 
9.74535277233 20.2473283716 
8.38475810386 18.8826773281 
6.850037581 17.379281872 
5.49686901922 16.0125659012 
4.09063009692 14.5654709996 
2.74907381288 13.235323768 
1.33764461584 11.7866035658 
4.10782519111e-15 10.4468057965 