camera_move(m) depth(m) 
18.6015677559 25.1204433498 
17.249162852 23.8162698413 
15.854177422 22.3913141026 
14.4971769301 21.0526302083 
13.1166901196 19.6624696356 
11.862205871 18.4232954545 
10.4960749137 17.0808125 
9.23626490449 15.8397984645 
8.01462573712 14.6254085322 
6.72745874996 13.3370165157 
5.26529091233 11.8611615245 
3.85539465438 10.4420820265 
2.63088805252 9.20207823961 
1.34727816677 7.89622670969 
-4.4408920985e-16 6.54780607187 