camera_move(m) depth(m) 
14.523804038 30.1631934033 
13.7480313236 30.0885315712 
12.77520785 29.2333760684 
11.8237346422 28.2990343915 
10.7998129535 27.2752179177 
9.68102425392 26.1875303197 
8.69717177816 25.1959832636 
7.55954158357 24.055476865 
6.60504562254 23.0913473316 
5.48910856177 21.9700788644 
4.47059805157 20.9806290207 
3.38150019134 19.895427673 
2.1038077226 18.6342849193 
1.00122621088 17.4919567355 
2.55351295664e-15 16.5079207921 