camera_move(m) depth(m) 
18.1547384405 28.4793582264 
17.0154595777 27.3921389794 
15.6805442716 26.0512955466 
14.3300089215 24.7127617329 
13.093697514 23.4426628195 
11.9678564198 22.2710644678 
10.7868396526 20.9893091885 
9.63280209196 19.7214125296 
8.5508144806 18.4667147271 
7.39847892165 17.1032665505 
6.22176826063 15.7612390988 
4.91859911526 14.3825090036 
3.47998657621 13.0433523538 
2.27441600638 11.991586659 
1.09966127737 11.0314935474 
3.90798504668e-14 10.0938419584 