camera_move(m) depth(m) 
17.7932518292 57.6188059701 
16.5502073682 55.8018232044 
15.1799030971 54.42828125 
13.8291596681 53.0710243902 
12.5573821518 51.8217699115 
11.3250023691 50.5631034483 
10.053885357 49.3424691358 
8.82199563353 48.0628571429 
7.57924748732 46.8269454545 
6.19986268241 45.4535051546 
4.99709299715 44.2810064935 
3.72582833333 43.0017956656 
2.4938241369 41.7540236686 
1.23072826913 40.5760857909 
5.68434188608e-14 39.3112623762 