camera_move(m) depth(m) 
19.3973505773 39.8612903226 
18.0287958364 37.9745238095 
16.541191295 35.9798181818 
15.1818660573 33.9403571429 
13.8211141041 32.0512903226 
12.4525221685 30.0763636364 
11.103466964 28.0941176471 
9.72438182733 26.2113407821 
8.3844684181 24.3269302326 
6.99460492127 22.3566793893 
5.6358500016 20.4617837838 
4.09746561235 18.326637744 
2.70843279616 16.3693883792 
1.37870171225 14.4633859223 
2.84217094304e-14 12.4837029894 