camera_move(m) depth(m) 
19.272500995 31.7916666667 
18.014164712 30.456 
16.5468303723 28.8915384615 
15.1855535099 27.3360784314 
13.6220616833 25.4691358025 
12.1465173085 23.6002380952 
10.7570931502 22.0010152284 
9.35116515861 20.3170977918 
8.18845218882 18.8631707317 
6.81931869075 17.2927331606 
5.3747957195 15.6545954693 
4.25991109312 14.3890700219 
2.89199691745 12.8463793677 
1.39882666981 11.1627352769 
0.0 9.68350435743 