camera_move(m) depth(m) 
14.8753652508 38.2356035329 
14.8507861602 38.2591464597 
14.7008697585 38.0803816047 
14.4037287354 37.8089545015 
13.9041436042 37.2819756554 
13.1512432336 36.5147729297 
12.2779597768 35.6734518647 
11.2298704174 34.590136876 
10.0215308493 33.4028816083 
8.63876245265 32.0260396717 
7.13830563053 30.5242078898 
5.50874829919 28.8807757644 
3.76114041942 27.142182266 
1.92474920064 25.3213930131 
0.0 23.3837299515 