camera_move(m) depth(m) 
16.4685377614 45.0364324324 
15.3660433757 44.0128813559 
14.1076724798 nan 
12.9855879139 41.495 
11.7461704381 40.4328571429 
10.6242940438 39.2171820449 
9.38450920645 37.9625295508 
8.12332187174 36.7581045752 
7.02256633087 35.6378893443 
5.87111486267 34.4706007752 
4.64952166739 33.2430434783 
3.49934371935 32.0871621622 
2.41107113088 31.0484848485 
1.14029986077 29.7884817518 
0.0 28.6013456464 