camera_move(m) depth(m) 
17.2561401209 38.5233962264 
15.9196096044 37.2091187739 
14.8151723562 36.0723684211 
13.5103503124 34.6905932203 
12.3379649756 33.4472077922 
11.0605719255 32.1233833333 
9.94789093353 30.9649315068 
8.59012099698 29.6087343358 
7.41033446234 28.4793582264 
6.26502827749 27.3921389794 
4.92205748643 26.0512955466 
3.56124999061 24.7127617329 
2.31735117148 23.4426628195 
1.1843494273 22.2710644678 
2.30926389122e-14 20.9893091885 