camera_move(m) depth(m) 
18.3441915149 29.5973476703 
17.0856861164 28.3211464968 
15.7299952761 26.9955820106 
14.3411529575 25.5748387097 
13.0837446892 24.3165048544 
11.8571219893 23.0541973244 
10.5754886701 21.73890625 
9.36881485812 20.5437864078 
8.07938681505 19.2045845846 
6.87918993567 18.0092886683 
5.48298344408 16.5959405941 
4.13105004132 15.2194312796 
2.73650129329 13.7955546624 
1.3800385291 12.3972346786 
-2.72004641033e-15 10.9843494105 