camera_move(m) depth(m) 
16.7586797757 40.0365591398 
15.6880711742 38.9551515152 
14.4088852432 37.7484 
13.1887119248 36.5429090909 
11.9094240509 35.3278756477 
10.7002991367 34.1513304721 
9.56996780798 33.0508865248 
8.21124080178 31.7122093023 
7.11135760534 30.6333271375 
5.85082529676 29.3624420402 
4.74959936318 28.2937262357 
3.48035079087 27.0204709419 
2.37862133086 25.8504012841 
1.12129093394 24.6212731006 
0.0 23.47428487 