camera_move(m) depth(m) 
19.3149396266 24.0318044444 
17.8655654213 22.6104598597 
16.4556087382 21.2089577657 
15.1249277321 19.8939498807 
13.705005504 18.4688990826 
12.3649313352 17.1362734819 
10.984091398 15.7653139746 
9.64296505559 14.4376174798 
8.26221331794 13.0754279549 
6.90190759489 11.7334229829 
5.40296221178 10.2490364115 
4.05226630759 8.90055962291 
2.69077702655 7.54715028743 
1.32006293065 6.17802330064 
-2.84217094304e-14 4.84906143098 