camera_move(m) depth(m) 
14.9427729212 33.9341772152 
13.8539983171 32.8560826772 
12.7618708096 31.7425362319 
11.7599205348 30.7565743945 
10.6918602935 29.6974038462 
9.62383766038 28.6360357675 
8.60102592282 27.6276891892 
7.46352708947 26.434499382 
6.38345400195 25.3442889908 
5.25782488053 24.2111307054 
4.26332315751 23.2305876686 
3.18165966553 22.0802317597 
1.99928855661 20.742020649 
0.968885680193 19.5249048223 
0.0 18.3822858702 