camera_move(m) depth(m) 
15.1733110393 34.8160349127 
14.028201931 33.6109669811 
12.9346620184 32.5942060086 
11.8377127988 31.4134897959 
10.8312954189 30.4317169811 
9.75850308089 29.34023766 
8.68579150422 28.2988870432 
7.65839103266 27.2846827795 
6.51554507789 26.0770780142 
5.43046442737 24.9506176084 
4.29917076327 23.8225813953 
3.30004903614 22.8428924731 
2.21370972166 21.7798837209 
1.0302459148 20.5718117229 
-2.84217094304e-14 19.4730744596 