camera_move(m) depth(m) 
15.5161072227 51.1852307692 
14.3063065041 49.9942982456 
13.1753646838 49.0018518519 
11.8159176954 47.6977631579 
10.7154195676 46.5659230769 
9.45425139426 45.3979746835 
8.3524536682 45.2666666667 
7.08252466855 43.3 
5.98023959317 41.98 
4.72217046169 40.36515625 
3.60030460012 39.298741573 
2.36116645573 38.0702315789 
1.23951302848 36.9476923077 
0.0 35.6653817505 