camera_move(m) depth(m) 
16.4461592198 22.380261194 
15.1033939148 21.0044548287 
13.6796311574 19.5256490385 
12.3425227348 18.1381988743 
10.9428600547 16.6806442577 
9.59044811991 15.2399786553 
8.20027930237 13.7851475155 
6.87953110226 12.3844111232 
5.36314303493 10.7616515045 
4.01920180572 9.31959649123 
2.6179216977 7.7938997006 
1.28259096219 6.32973168284 
-5.10702591328e-15 4.93924480437 