camera_move(m) depth(m) 
19.5153648616 35.3262546468 
18.1009568248 33.8156447689 
16.7664272584 32.4497687861 
15.3533013153 30.9868567807 
13.8904144491 29.4708936404 
12.4662141842 28.0104551854 
11.1232099935 26.6435034427 
9.70257039947 25.1433126935 
8.36450257556 23.7389892223 
6.93967524383 22.2008872325 
5.60957559059 20.853258672 
4.22261660273 19.3746862996 
2.87080305374 17.9341274063 
1.37372240531 16.300928072 
8.21565038223e-15 14.8201105172 