camera_move(m) depth(m) 
19.436612339 25.70025 
18.096667427 24.322027027 
16.5693262741 22.7451633987 
15.2101804681 21.3209856631 
13.8414627705 19.9418271955 
12.4817040195 18.5036394948 
11.0718742755 17.0482538254 
9.72270000861 15.6446565934 
8.35398231103 14.194073695 
6.98499005678 12.7375475842 
5.63556496511 11.316323191 
4.12782178115 9.7112807803 
2.75836604771 8.20858898098 
1.38951139336 6.75755600346 
0.0 5.33187716819 