camera_move(m) depth(m) 
19.2640669554 59.6712560386 
17.8654379763 58.15736 
16.506851411 56.8333333333 
15.2564117145 55.8382278481 
13.8878395601 54.4015503876 
12.5194350195 52.9797202797 
11.041538584 51.5436026936 
9.79129054997 50.2575709779 
8.41285709598 48.8575820896 
7.04359739809 47.4585795455 
5.55596887095 46.0732368421 
4.15681085228 44.5953731343 
2.79826746582 43.2711792453 
1.37772539579 41.7992274678 
0.0 40.4361257606 